#     TEMP:                  X_AVE:            ERROR:
       0.5                7.902656e+01      8.196851e-01
			 0.6                4.395735e+01      6.452382e-01
			 0.7                2.451349e+01      3.427459e-01
			 0.8                1.540672e+01      1.423650e-01
			 0.9                1.038995e+01      9.538635e-02
			 1.0                7.475888e+00      4.868352e-02
			 1.1                5.609393e+00      3.164656e-02
			 1.2                4.429258e+00      2.532701e-02
			 1.3                3.544658e+00      1.624445e-02
			 1.4                2.926528e+00      1.282604e-02
			 1.5                2.528443e+00      1.027571e-02
			 1.6                2.176281e+00      7.973690e-03
			 1.7                1.897437e+00      5.908847e-03
			 1.8                1.683525e+00      6.273754e-03
			 1.9                1.509214e+00      6.113792e-03
			 2.0                1.359550e+00      4.498663e-03

