#     TEMP:          X_AVE:             ERROR:
       0.5          -9.717590e-01      9.092000e-04
			 0.6          -9.347684e-01      1.090141e-03
			 0.7          -8.914932e-01      7.584357e-04
			 0.8          -8.480454e-01      6.104239e-04
			 0.9          -8.046864e-01      4.694246e-04
			 1.0          -7.616764e-01      3.711355e-04
			 1.1          -7.213982e-01      4.059479e-04
			 1.2          -6.829048e-01      3.070162e-04
			 1.3          -6.469432e-01      4.276783e-04
			 1.4          -6.136298e-01      3.874235e-04
			 1.5          -5.825126e-01      3.483375e-04
			 1.6          -5.544974e-01     3.106355e-04
			 1.7          -5.283028e-01      2.854889e-04
			 1.8          -5.044218e-01      2.538396e-04
			 1.9          -4.824432e-01      2.307183e-04
			 2.0          -4.620360e-01      2.577981e-04
			 