                  #     TEMP:                X_AVE:            ERROR:
			0.5              3.266382e-01      6.868665e-03
			0.6              4.244988e-01      2.757975e-03
			0.7              4.318035e-01      3.257291e-03
			0.8              4.447607e-01      2.483694e-03
			0.9              4.385621e-01      2.254326e-03
			1.0              4.207157e-01      1.565023e-03
			1.1              3.981929e-01      1.076806e-03
			1.2              3.682927e-01      1.325496e-03
			1.3              3.438515e-01      8.042308e-04
			1.4              3.162898e-01      7.678768e-04
			1.5              2.936056e-01      9.887158e-04
			1.6              2.707488e-01      6.087339e-04
			1.7              2.483490e-01      6.614115e-04
			1.8              2.289934e-01      4.640167e-04
			1.9              2.128354e-01      6.301257e-04
			2.0              1.970308e-01      5.182258e-04